ID,Quality[0],Quality[1],Quality[2],Quality[3],Quality[4],Quality[5],Quality[6],ItemLevel
1,12.18537,12.862335,13.5393,13.5393,13.5393,13.5393,13.5393,1
2,13.293131,14.031638,14.770145,14.770145,14.770145,14.770145,14.770145,2
3,14.400892,15.200942,16.000992,16.000992,16.000992,16.000992,16.000992,3
4,15.508653,16.370245,17.231836,17.231836,17.231836,17.231836,17.231836,4
5,16.616413,17.539549,18.462683,18.462683,18.462683,18.462683,18.462683,5
6,17.724174,18.70885,19.693527,19.693527,19.693527,19.693527,19.693527,6
7,18.831936,19.878155,20.924374,20.924374,20.924374,20.924374,20.924374,7
8,19.939697,21.047459,22.155218,22.155218,22.155218,22.155218,22.155218,8
9,21.047459,22.21676,23.386065,23.386065,23.386065,23.386065,23.386065,9
10,22.155218,23.386065,24.616909,24.616909,24.616909,24.616909,24.616909,10
11,23.26298,24.555367,25.847755,25.847755,25.847755,25.847755,25.847755,11
12,24.37074,25.72467,27.0786,27.0786,27.0786,27.0786,27.0786,12
13,25.478502,26.893974,28.309446,28.309446,28.309446,28.309446,28.309446,13
14,26.586262,28.063276,29.54029,29.54029,29.54029,29.54029,29.54029,14
15,27.694023,29.23258,30.771137,30.771137,30.771137,30.771137,30.771137,15
16,28.801785,30.401884,32.001984,32.001984,32.001984,32.001984,32.001984,16
17,29.909546,31.571186,33.232826,33.232826,33.232826,33.232826,33.232826,17
18,31.017305,32.74049,34.463673,34.463673,34.463673,34.463673,34.463673,18
19,32.12507,33.909794,35.69452,35.69452,35.69452,35.69452,35.69452,19
20,33.232826,35.079098,36.925365,36.925365,36.925365,36.925365,36.925365,20
21,33.354836,35.207882,37.06093,37.06093,37.06093,37.06093,37.06093,21
22,33.477955,35.33784,37.19773,37.19773,37.19773,37.19773,37.19773,22
23,33.602203,35.468994,37.33578,37.33578,37.33578,37.33578,37.33578,23
24,35.580627,37.557327,39.53403,39.53403,39.53403,39.53403,39.53403,24
25,35.70857,37.69238,39.676186,39.676186,39.676186,39.676186,39.676186,25
26,35.837624,37.8286,39.81958,39.81958,39.81958,39.81958,39.81958,26
27,35.9678,37.966015,39.964226,39.964226,39.964226,39.964226,39.964226,27
28,36.099113,38.104618,40.110126,40.110126,40.110126,40.110126,40.110126,28
29,38.128902,40.247177,42.365448,42.365448,42.365448,42.365448,42.365448,29
30,38.263905,40.389675,42.51545,42.51545,42.51545,42.51545,42.51545,30
31,38.400024,40.53336,42.666695,42.666695,42.666695,42.666695,42.666695,31
32,38.537273,40.678234,42.819195,42.819195,42.819195,42.819195,42.819195,32
33,38.675667,40.824314,42.97296,42.97296,42.97296,42.97296,42.97296,33
34,38.815205,40.971607,43.128006,43.128006,43.128006,43.128006,43.128006,34
35,40.892696,43.164513,45.43633,45.43633,45.43633,45.43633,45.43633,35
36,41.035847,43.315617,45.595387,45.595387,45.595387,45.595387,45.595387,36
37,41.180138,43.467922,45.755707,45.755707,45.755707,45.755707,45.755707,37
38,41.325573,43.621437,45.9173,45.9173,45.9173,45.9173,45.9173,38
39,41.47216,43.77617,46.08018,46.08018,46.08018,46.08018,46.08018,39
40,43.60113,46.023415,48.4457,48.4457,48.4457,48.4457,48.4457,40
41,43.75133,46.18196,48.61259,48.61259,48.61259,48.61259,48.61259,41
42,43.902676,46.341713,48.78075,48.78075,48.78075,48.78075,48.78075,42
43,44.055172,46.50268,48.95019,48.95019,48.95019,48.95019,48.95019,43
44,44.208828,46.664875,49.12092,49.12092,49.12092,49.12092,49.12092,44
45,44.36365,46.8283,49.292946,49.292946,49.292946,49.292946,49.292946,45
46,46.540215,49.125782,51.71135,51.71135,51.71135,51.71135,51.71135,46
47,46.69858,49.29295,51.887314,51.887314,51.887314,51.887314,51.887314,47
48,46.85811,49.461334,52.064564,52.064564,52.064564,52.064564,52.064564,48
49,47.0188,49.63095,52.243107,52.243107,52.243107,52.243107,52.243107,49
50,47.18066,49.801807,52.42296,52.42296,52.42296,52.42296,52.42296,50
51,52.621433,55.544846,58.468258,58.468258,58.468258,58.468258,58.468258,51
52,52.8094,55.743256,58.67711,58.67711,58.67711,58.67711,58.67711,52
53,52.998684,55.943054,58.88743,58.88743,58.88743,58.88743,58.88743,53
54,53.189297,56.14426,59.09922,59.09922,59.09922,59.09922,59.09922,54
55,53.381252,56.346878,59.3125,59.3125,59.3125,59.3125,59.3125,55
56,53.57455,56.550915,59.52728,59.52728,59.52728,59.52728,59.52728,56
57,54.75618,57.798187,60.8402,60.8402,60.8402,60.8402,60.8402,57
58,54.944862,57.997356,61.049847,61.049847,61.049847,61.049847,61.049847,58
59,55.134823,58.19787,61.260914,61.260914,61.260914,61.260914,61.260914,59
60,55.326065,58.399734,61.473408,61.473408,61.473408,61.473408,61.473408,60
61,55.5186,58.60297,61.687336,61.687336,61.687336,61.687336,61.687336,61
62,56.70665,59.857018,63.00739,63.00739,63.00739,63.00739,63.00739,62
63,56.8948,60.055622,63.216442,63.216442,63.216442,63.216442,63.216442,63
64,57.084175,60.25552,63.42686,63.42686,63.42686,63.42686,63.42686,64
65,57.274784,60.45672,63.63865,63.63865,63.63865,63.63865,63.63865,65
66,57.466637,60.65923,63.85182,63.85182,63.85182,63.85182,63.85182,66
67,57.65974,60.86306,64.066376,64.066376,64.066376,64.066376,64.066376,67
68,58.86116,62.131226,65.40129,65.40129,65.40129,65.40129,65.40129,68
69,59.06981,62.351463,65.63312,65.63312,65.63312,65.63312,65.63312,69
70,59.279907,62.573235,65.86656,65.86656,65.86656,65.86656,65.86656,70
71,59.491463,62.796547,66.10162,66.10162,66.10162,66.10162,66.10162,71
72,59.704494,63.021408,66.338326,66.338326,66.338326,66.338326,66.338326,72
73,61.12793,64.523926,67.91992,67.91992,67.91992,67.91992,67.91992,73
74,61.36623,64.77547,68.1847,68.1847,68.1847,68.1847,68.1847,74
75,61.606358,65.02893,68.45151,68.45151,68.45151,68.45151,68.45151,75
76,61.848324,65.28434,68.72036,68.72036,68.72036,68.72036,68.72036,76
77,62.092148,65.54171,68.99127,68.99127,68.99127,68.99127,68.99127,77
78,62.337837,65.80105,69.26427,69.26427,69.26427,69.26427,69.26427,78
79,63.913956,67.46473,71.0155,71.0155,71.0155,71.0155,71.0155,79
80,64.17454,67.73979,71.305046,71.305046,71.305046,71.305046,71.305046,80
81,64.43721,68.01706,71.5969,71.5969,71.5969,71.5969,71.5969,81
82,64.70199,68.29654,71.8911,71.8911,71.8911,71.8911,71.8911,82
83,64.96888,68.57826,72.187645,72.187645,72.187645,72.187645,72.187645,83
84,66.67382,70.37792,74.08202,74.08202,74.08202,74.08202,74.08202,84
85,66.95647,70.67627,74.39607,74.39607,74.39607,74.39607,74.39607,85
86,67.24147,70.977104,74.712746,74.712746,74.712746,74.712746,74.712746,86
87,67.52885,71.28045,75.03206,75.03206,75.03206,75.03206,75.03206,87
88,67.81863,71.58633,75.354034,75.354034,75.354034,75.354034,75.354034,88
89,68.110825,71.89476,75.678696,75.678696,75.678696,75.678696,75.678696,89
90,69.98234,73.87025,77.758156,77.758156,77.758156,77.758156,77.758156,90
91,70.291565,74.19665,78.10174,78.10174,78.10174,78.10174,78.10174,91
92,70.60347,74.52589,78.4483,78.4483,78.4483,78.4483,78.4483,92
93,70.91808,74.85798,78.797874,78.797874,78.797874,78.797874,78.797874,93
94,71.23543,75.192955,79.15048,79.15048,79.15048,79.15048,79.15048,94
95,73.26148,77.331566,81.40164,81.40164,81.40164,81.40164,81.40164,95
96,73.59691,77.68562,81.77434,81.77434,81.77434,81.77434,81.77434,96
97,73.935356,78.04288,82.15039,82.15039,82.15039,82.15039,82.15039,97
98,74.276855,78.40335,82.52984,82.52984,82.52984,82.52984,82.52984,98
99,74.62144,78.767075,82.912704,82.912704,82.912704,82.912704,82.912704,99
100,74.969124,79.13408,83.29903,83.29903,83.29903,83.29903,83.29903,100
101,77.193306,81.48182,85.77034,85.77034,85.77034,85.77034,85.77034,101
102,77.56063,81.86956,86.17848,86.17848,86.17848,86.17848,86.17848,102
103,77.9314,82.26092,86.59044,86.59044,86.59044,86.59044,86.59044,103
104,78.30563,82.655945,87.006256,87.006256,87.006256,87.006256,87.006256,104
105,78.683365,83.054665,87.425964,87.425964,87.425964,87.425964,87.425964,105
106,81.09404,85.59926,90.104485,90.104485,90.104485,90.104485,90.104485,106
107,81.49271,86.02008,90.54745,90.54745,90.54745,90.54745,90.54745,107
108,81.89523,86.44497,90.994705,90.994705,90.994705,90.994705,90.994705,108
109,82.30167,86.873985,91.4463,91.4463,91.4463,91.4463,91.4463,109
110,82.712036,87.30715,91.90227,91.90227,91.90227,91.90227,91.90227,110
111,83.12639,87.74452,92.36265,92.36265,92.36265,92.36265,92.36265,111
112,85.77435,90.5396,95.30484,95.30484,95.30484,95.30484,95.30484,112
113,86.211555,91.00108,95.79061,95.79061,95.79061,95.79061,95.79061,113
114,86.65314,91.46719,96.28126,96.28126,96.28126,96.28126,96.28126,114
115,87.099144,91.93798,96.776825,96.776825,96.776825,96.776825,96.776825,115
116,87.54962,92.41349,97.27736,97.27736,97.27736,97.27736,97.27736,116
117,90.42393,95.44748,100.47103,100.47103,100.47103,100.47103,100.47103,117
118,90.89885,95.948784,100.99873,100.99873,100.99873,100.99873,100.99873,118
119,91.3787,96.45529,101.53188,101.53188,101.53188,101.53188,101.53188,119
120,91.86352,96.96705,102.07057,102.07057,102.07057,102.07057,102.07057,120
121,92.353355,97.4841,102.61485,102.61485,102.61485,102.61485,102.61485,121
122,92.848274,98.006516,103.16475,103.16475,103.16475,103.16475,103.16475,122
123,96.00864,101.34245,106.67626,106.67626,106.67626,106.67626,106.67626,123
124,96.53036,101.89316,107.25595,107.25595,107.25595,107.25595,107.25595,124
125,97.05766,102.44975,107.84184,107.84184,107.84184,107.84184,107.84184,125
126,97.59061,103.01231,108.43401,108.43401,108.43401,108.43401,108.43401,126
127,98.12925,103.58087,109.0325,109.0325,109.0325,109.0325,109.0325,127
128,101.56577,107.20831,112.85086,112.85086,112.85086,112.85086,112.85086,128
129,102.13319,107.80726,113.48133,113.48133,113.48133,113.48133,113.48133,129
130,102.70688,108.41282,114.11875,114.11875,114.11875,114.11875,114.11875,130
131,103.28689,109.02505,114.76321,114.76321,114.76321,114.76321,114.76321,131
132,103.8733,109.64404,115.41477,115.41477,115.41477,115.41477,115.41477,132
133,104.46617,110.26985,116.07352,116.07352,116.07352,116.07352,116.07352,133
134,108.24967,114.26354,120.27741,120.27741,120.27741,120.27741,120.27741,134
135,108.87424,114.92281,120.97138,120.97138,120.97138,120.97138,120.97138,135
136,109.50591,115.58958,121.67323,121.67323,121.67323,121.67323,121.67323,136
137,110.14476,116.26392,122.38306,122.38306,122.38306,122.38306,122.38306,137
138,110.79087,116.94592,123.10097,123.10097,123.10097,123.10097,123.10097,138
139,114.91308,121.29714,127.6812,127.6812,127.6812,127.6812,127.6812,139
140,115.59334,122.01519,128.43704,128.43704,128.43704,128.43704,128.43704,140
141,116.28156,122.74164,129.20172,129.20172,129.20172,129.20172,129.20172,141
142,116.97781,123.47659,129.97536,129.97536,129.97536,129.97536,129.97536,142
143,117.68223,124.22013,130.75803,130.75803,130.75803,130.75803,130.75803,143
144,118.39487,124.97237,131.54987,131.54987,131.54987,131.54987,131.54987,144
145,122.94046,129.7705,136.60051,136.60051,136.60051,136.60051,136.60051,145
146,123.69088,130.56259,137.43431,137.43431,137.43431,137.43431,137.43431,146
147,124.45033,131.36423,138.27814,138.27814,138.27814,138.27814,138.27814,147
148,125.21891,132.1755,139.13213,139.13213,139.13213,139.13213,139.13213,148
149,125.99673,132.99655,139.99637,139.99637,139.99637,139.99637,139.99637,149
150,130.95985,138.2354,145.51094,145.51094,145.51094,145.51094,145.51094,150
151,131.7785,139.09953,146.42056,146.42056,146.42056,146.42056,146.42056,151
152,132.60728,139.97437,147.34143,147.34143,147.34143,147.34143,147.34143,152
153,133.44632,140.86,148.27368,148.27368,148.27368,148.27368,148.27368,153
154,134.29572,141.75659,149.21747,149.21747,149.21747,149.21747,149.21747,154
155,135.15562,142.66426,150.17291,150.17291,150.17291,150.17291,150.17291,155
156,140.63832,148.45155,156.2648,156.2648,156.2648,156.2648,156.2648,156
157,141.54356,149.40709,157.27063,157.27063,157.27063,157.27063,157.27063,157
158,142.4603,150.37476,158.28922,158.28922,158.28922,158.28922,158.28922,158
159,143.38867,151.3547,159.32074,159.32074,159.32074,159.32074,159.32074,159
160,144.32883,152.34709,160.36536,160.36536,160.36536,160.36536,160.36536,160
161,150.32878,158.68039,167.03198,167.03198,167.03198,167.03198,167.03198,161
162,151.31813,159.72469,168.13126,168.13126,168.13126,168.13126,168.13126,162
163,152.32036,160.7826,169.24484,169.24484,169.24484,169.24484,169.24484,163
164,153.33563,161.85428,170.37292,170.37292,170.37292,170.37292,170.37292,164
165,154.36415,162.93993,171.51572,171.51572,171.51572,171.51572,171.51572,165
166,155.40605,164.03972,172.67339,172.67339,172.67339,172.67339,172.67339,166
167,162.04729,171.04991,180.05254,180.05254,180.05254,180.05254,180.05254,167
168,163.14401,172.20758,181.27113,181.27113,181.27113,181.27113,181.27113,168
169,164.2554,173.3807,182.50601,182.50601,182.50601,182.50601,182.50601,169
170,165.38164,174.5695,183.75737,183.75737,183.75737,183.75737,183.75737,170
171,166.52292,175.77419,185.02547,185.02547,185.02547,185.02547,185.02547,171
172,173.80814,183.46414,193.12015,193.12015,193.12015,193.12015,193.12015,172
173,175.00908,184.73181,194.45454,194.45454,194.45454,194.45454,194.45454,173
174,176.22647,186.01683,195.80719,195.80719,195.80719,195.80719,195.80719,174
175,177.46053,187.31944,197.17836,197.17836,197.17836,197.17836,197.17836,175
176,178.71146,188.63988,198.5683,198.5683,198.5683,198.5683,198.5683,176
177,179.97952,189.9784,199.97725,199.97725,199.97725,199.97725,199.97725,177
178,188.06061,198.50842,208.95624,208.95624,208.95624,208.95624,208.95624,178
179,189.39546,199.91743,210.4394,210.4394,210.4394,210.4394,210.4394,179
180,190.74902,201.34619,211.94336,211.94336,211.94336,211.94336,211.94336,180
181,192.12155,202.79497,213.46838,213.46838,213.46838,213.46838,213.46838,181
182,193.51332,204.26405,215.0148,215.0148,215.0148,215.0148,215.0148,182
183,203.13823,214.42369,225.70915,225.70915,225.70915,225.70915,225.70915,183
184,204.61351,215.98093,227.34834,227.34834,227.34834,227.34834,227.34834,184
185,206.10994,217.5605,229.01105,229.01105,229.01105,229.01105,229.01105,185
186,207.62785,219.16273,230.69762,230.69762,230.69762,230.69762,230.69762,186
187,209.16754,220.78795,232.40837,232.40837,232.40837,232.40837,232.40837,187
188,219.00046,231.16716,243.33385,243.33385,243.33385,243.33385,243.33385,188
189,220.62096,232.87769,245.1344,245.1344,245.1344,245.1344,245.1344,189
190,222.26523,234.6133,246.96136,246.96136,246.96136,246.96136,246.96136,190
191,223.93364,236.3744,248.81516,248.81516,248.81516,248.81516,248.81516,191
192,225.62653,238.16133,250.69614,250.69614,250.69614,250.69614,250.69614,192
193,227.34427,239.9745,252.60474,252.60474,252.60474,252.60474,252.60474,193
194,238.28896,251.52724,264.7655,264.7655,264.7655,264.7655,264.7655,194
195,240.09764,253.43639,266.77515,266.77515,266.77515,266.77515,266.77515,195
196,241.93346,255.3742,268.81494,268.81494,268.81494,268.81494,268.81494,196
197,243.79681,257.3411,270.88535,270.88535,270.88535,270.88535,270.88535,197
198,245.68813,259.33746,272.98682,272.98682,272.98682,272.98682,272.98682,198
199,257.77106,272.09167,286.4123,286.4123,286.4123,286.4123,286.4123,199
200,259.76215,274.19336,288.6246,288.6246,288.6246,288.6246,288.6246,200
201,261.78375,276.3273,290.87082,290.87082,290.87082,290.87082,290.87082,201
202,263.83636,278.49393,293.1515,293.1515,293.1515,293.1515,293.1515,202
203,265.92044,280.6938,295.46713,295.46713,295.46713,295.46713,295.46713,203
204,268.03644,282.92737,297.81827,297.81827,297.81827,297.81827,297.81827,204
205,281.5182,297.15808,312.79797,312.79797,312.79797,312.79797,312.79797,205
206,283.7469,299.51062,315.27432,315.27432,315.27432,315.27432,315.27432,206
207,286.0105,301.9,317.78946,317.78946,317.78946,317.78946,317.78946,207
208,288.30957,304.32678,320.34396,320.34396,320.34396,320.34396,320.34396,208
209,290.64462,306.79156,322.93848,322.93848,322.93848,322.93848,322.93848,209
210,305.5684,322.5444,339.52042,339.52042,339.52042,339.52042,339.52042,210
211,308.02744,325.14008,342.25272,342.25272,342.25272,342.25272,342.25272,211
212,310.52582,327.77725,345.0287,345.0287,345.0287,345.0287,345.0287,212
213,313.06412,330.45657,347.84903,347.84903,347.84903,347.84903,347.84903,213
214,315.643,333.17874,350.71445,350.71445,350.71445,350.71445,350.71445,214
215,318.26312,335.9444,353.6257,353.6257,353.6257,353.6257,353.6257,215
216,334.95642,353.5651,372.1738,372.1738,372.1738,372.1738,372.1738,216
217,337.7171,356.47916,375.2412,375.2412,375.2412,375.2412,375.2412,217
218,340.5228,359.44073,378.35867,378.35867,378.35867,378.35867,378.35867,218
219,343.3743,362.45062,381.52698,381.52698,381.52698,381.52698,381.52698,219
220,346.27228,365.50964,384.74698,384.74698,384.74698,384.74698,384.74698,220
221,364.80173,385.06848,405.33527,405.33527,405.33527,405.33527,405.33527,221
222,367.85486,388.29126,408.72763,408.72763,408.72763,408.72763,408.72763,222
223,370.9588,391.56763,412.17645,412.17645,412.17645,412.17645,412.17645,223
224,374.11438,394.89853,415.68265,415.68265,415.68265,415.68265,415.68265,224
225,377.32248,398.28485,419.2472,419.2472,419.2472,419.2472,419.2472,225
226,380.58395,401.72748,422.87103,422.87103,422.87103,422.87103,422.87103,226
227,401.36417,423.6622,445.9602,445.9602,445.9602,445.9602,445.9602,227
228,404.80212,427.29114,449.78015,449.78015,449.78015,449.78015,449.78015,228
229,408.2984,430.98166,453.66492,453.66492,453.66492,453.66492,453.66492,229
230,411.854,434.73477,457.61557,457.61557,457.61557,457.61557,457.61557,230
231,415.4699,438.55157,461.63324,461.63324,461.63324,461.63324,461.63324,231
232,438.60013,462.9668,487.33347,487.33347,487.33347,487.33347,487.33347,232
233,442.4114,466.98984,491.56824,491.56824,491.56824,491.56824,491.56824,233
234,446.2886,471.08243,495.87622,495.87622,495.87622,495.87622,495.87622,234
235,450.23282,475.24576,500.2587,500.2587,500.2587,500.2587,500.2587,235
236,454.24524,479.48108,504.71692,504.71692,504.71692,504.71692,504.71692,236
237,458.32703,483.78964,509.25226,509.25226,509.25226,509.25226,509.25226,237
238,484.3358,511.24335,538.1509,538.1509,538.1509,538.1509,538.1509,238
239,488.64062,515.78735,542.934,542.934,542.934,542.934,542.934,239
240,493.02127,520.4114,547.80145,547.80145,547.80145,547.80145,547.80145,240
241,497.4791,525.1168,552.7546,552.7546,552.7546,552.7546,552.7546,241
242,502.01544,529.90515,557.7949,557.7949,557.7949,557.7949,557.7949,242
243,531.04736,560.55,590.0526,590.0526,590.0526,590.0526,590.0526,243
244,535.83136,565.59973,595.36816,595.36816,595.36816,595.36816,595.36816,244
245,540.7012,570.7401,600.77905,600.77905,600.77905,600.77905,600.77905,245
246,545.6583,575.97266,606.287,606.287,606.287,606.287,606.287,246
247,550.7044,581.2991,611.8938,611.8938,611.8938,611.8938,611.8938,247
248,555.841,586.72107,617.60114,617.60114,617.60114,617.60114,617.60114,248
249,588.5745,621.2731,653.9717,653.9717,653.9717,653.9717,653.9717,249
250,593.9948,626.9945,659.99426,659.99426,659.99426,659.99426,659.99426,250
251,599.5141,632.82043,666.1268,666.1268,666.1268,666.1268,666.1268,251
252,605.13416,638.75275,672.37134,672.37134,672.37134,672.37134,672.37134,252
253,610.8569,644.7934,678.72986,678.72986,678.72986,678.72986,678.72986,253
254,647.4998,683.472,719.4442,719.4442,719.4442,719.4442,719.4442,254
255,653.53845,689.8461,726.1539,726.1539,726.1539,726.1539,726.1539,255
256,659.68933,696.33875,732.98816,732.98816,732.98816,732.98816,732.98816,256
257,665.9545,702.952,739.9495,739.9495,739.9495,739.9495,739.9495,257
258,672.3362,709.6882,747.0402,747.0402,747.0402,747.0402,747.0402,258
259,678.8364,716.54956,754.2627,754.2627,754.2627,754.2627,754.2627,259
260,720.26544,760.2802,800.295,800.295,800.295,800.295,800.295,260
261,727.12885,767.5249,807.92096,807.92096,807.92096,807.92096,807.92096,261
262,734.122,774.9066,815.69116,815.69116,815.69116,815.69116,815.69116,262
263,741.24744,782.42786,823.6083,823.6083,823.6083,823.6083,823.6083,263
264,748.50757,790.0913,831.67505,831.67505,831.67505,831.67505,831.67505,264
265,795.0187,839.1864,883.3541,883.3541,883.3541,883.3541,883.3541,265
266,802.68445,847.278,891.8716,891.8716,891.8716,891.8716,891.8716,266
267,810.4976,855.52527,900.5529,900.5529,900.5529,900.5529,900.5529,267
268,818.461,863.931,909.4011,909.4011,909.4011,909.4011,909.4011,268
