ID,Quality[0],Quality[1],Quality[2],Quality[3],Quality[4],Quality[5],Quality[6],ItemLevel
1,30.868788,32.58372,34.298653,34.298653,34.298653,34.298653,34.298653,1
2,33.67504,35.545876,37.41671,37.41671,37.41671,37.41671,37.41671,2
3,36.481293,38.508034,40.53477,40.53477,40.53477,40.53477,40.53477,3
4,39.287548,41.47019,43.652832,43.652832,43.652832,43.652832,43.652832,4
5,42.0938,44.432346,46.77089,46.77089,46.77089,46.77089,46.77089,5
6,44.900055,47.3945,49.88895,49.88895,49.88895,49.88895,49.88895,6
7,47.706306,50.35666,53.007008,53.007008,53.007008,53.007008,53.007008,7
8,50.51256,53.318813,56.12507,56.12507,56.12507,56.12507,56.12507,8
9,53.318813,56.28097,59.243126,59.243126,59.243126,59.243126,59.243126,9
10,56.12507,59.243126,62.361187,62.361187,62.361187,62.361187,62.361187,10
11,58.93132,62.205284,65.47925,65.47925,65.47925,65.47925,65.47925,11
12,61.737576,65.16744,68.597305,68.597305,68.597305,68.597305,68.597305,12
13,64.54383,68.12959,71.71536,71.71536,71.71536,71.71536,71.71536,13
14,67.35008,71.09175,74.83342,74.83342,74.83342,74.83342,74.83342,14
15,70.156334,74.05391,77.951485,77.951485,77.951485,77.951485,77.951485,15
16,72.962585,77.01607,81.06954,81.06954,81.06954,81.06954,81.06954,16
17,75.768845,79.97822,84.1876,84.1876,84.1876,84.1876,84.1876,17
18,78.575096,82.94038,87.305664,87.305664,87.305664,87.305664,87.305664,18
19,81.38135,85.902534,90.42372,90.42372,90.42372,90.42372,90.42372,19
20,84.1876,88.86469,93.54178,93.54178,93.54178,93.54178,93.54178,20
21,84.49667,89.19093,93.88519,93.88519,93.88519,93.88519,93.88519,21
22,84.80858,89.520164,94.23175,94.23175,94.23175,94.23175,94.23175,22
23,85.12333,89.8524,94.581474,94.581474,94.581474,94.581474,94.581474,23
24,90.1352,95.142715,100.15022,100.15022,100.15022,100.15022,100.15022,24
25,90.45931,95.484825,100.51035,100.51035,100.51035,100.51035,100.51035,25
26,90.78624,95.829926,100.8736,100.8736,100.8736,100.8736,100.8736,26
27,91.11602,96.17802,101.24002,101.24002,101.24002,101.24002,101.24002,27
28,91.44866,96.529144,101.60963,101.60963,101.60963,101.60963,101.60963,28
29,96.59067,101.95681,107.32296,107.32296,107.32296,107.32296,107.32296,29
30,96.932655,102.3178,107.70295,107.70295,107.70295,107.70295,107.70295,30
31,97.27748,102.68179,108.08609,108.08609,108.08609,108.08609,108.08609,31
32,97.625175,103.0488,108.47242,108.47242,108.47242,108.47242,108.47242,32
33,97.97576,103.41885,108.86195,108.86195,108.86195,108.86195,108.86195,33
34,98.329254,103.79198,109.25472,109.25472,109.25472,109.25472,109.25472,34
35,103.59209,109.3472,115.10232,115.10232,115.10232,115.10232,115.10232,35
36,103.95473,109.72999,115.50525,115.50525,115.50525,115.50525,115.50525,36
37,104.32025,110.11582,115.91138,115.91138,115.91138,115.91138,115.91138,37
38,104.68867,110.50471,116.32075,116.32075,116.32075,116.32075,116.32075,38
39,105.06003,110.8967,116.73336,116.73336,116.73336,116.73336,116.73336,39
40,110.45327,116.58956,122.72585,122.72585,122.72585,122.72585,122.72585,40
41,110.83377,116.9912,123.14864,123.14864,123.14864,123.14864,123.14864,41
42,111.21716,117.3959,123.57463,123.57463,123.57463,123.57463,123.57463,42
43,111.60348,117.80367,124.00387,124.00387,124.00387,124.00387,124.00387,43
44,111.99273,118.21455,124.43636,124.43636,124.43636,124.43636,124.43636,44
45,112.38494,118.62856,124.87216,124.87216,124.87216,124.87216,124.87216,45
46,117.89875,124.44868,130.99861,130.99861,130.99861,130.99861,130.99861,46
47,118.29994,124.87216,131.44438,131.44438,131.44438,131.44438,131.44438,47
48,118.70406,125.29873,131.8934,131.8934,131.8934,131.8934,131.8934,48
49,119.11113,125.72842,132.3457,132.3457,132.3457,132.3457,132.3457,49
50,119.52118,126.16124,132.8013,132.8013,132.8013,132.8013,132.8013,50
51,133.3041,140.70988,148.11566,148.11566,148.11566,148.11566,148.11566,51
52,133.78027,141.21251,148.64474,148.64474,148.64474,148.64474,148.64474,52
53,134.25978,141.71866,149.17754,149.17754,149.17754,149.17754,149.17754,53
54,134.74266,142.22836,149.71407,149.71407,149.71407,149.71407,149.71407,54
55,135.22893,142.74164,150.25436,150.25436,150.25436,150.25436,150.25436,55
56,135.7186,143.25853,150.79845,150.79845,150.79845,150.79845,150.79845,56
57,138.71198,146.4182,154.12442,154.12442,154.12442,154.12442,154.12442,57
58,139.18997,146.92274,154.65552,154.65552,154.65552,154.65552,154.65552,58
59,139.67119,147.4307,155.1902,155.1902,155.1902,155.1902,155.1902,59
60,140.15565,147.94208,155.7285,155.7285,155.7285,155.7285,155.7285,60
61,140.6434,148.45692,156.27045,156.27045,156.27045,156.27045,156.27045,61
62,143.65305,151.63376,159.61449,159.61449,159.61449,159.61449,159.61449,62
63,144.12967,152.13687,160.14409,160.14409,160.14409,160.14409,160.14409,63
64,144.60942,152.64326,160.67712,160.67712,160.67712,160.67712,160.67712,64
65,145.09229,153.15297,161.21364,161.21364,161.21364,161.21364,161.21364,65
66,145.5783,153.66597,161.75366,161.75366,161.75366,161.75366,161.75366,66
67,146.06747,154.18234,162.2972,162.2972,162.2972,162.2972,162.2972,67
68,149.111,157.39493,165.67888,165.67888,165.67888,165.67888,165.67888,68
69,149.63956,157.95287,166.26617,166.26617,166.26617,166.26617,166.26617,69
70,150.17178,158.51466,166.85754,166.85754,166.85754,166.85754,166.85754,70
71,150.70772,159.08037,167.45302,167.45302,167.45302,167.45302,167.45302,71
72,151.24738,159.65001,168.05264,168.05264,168.05264,168.05264,168.05264,72
73,154.85332,163.45628,172.05925,172.05925,172.05925,172.05925,172.05925,73
74,155.457,164.0935,172.73,172.73,172.73,172.73,172.73,74
75,156.0653,164.7356,173.4059,173.4059,173.4059,173.4059,173.4059,75
76,156.67827,165.38261,174.08698,174.08698,174.08698,174.08698,174.08698,76
77,157.29594,166.0346,174.77327,174.77327,174.77327,174.77327,174.77327,77
78,157.91833,166.69159,175.46483,175.46483,175.46483,175.46483,175.46483,78
79,161.91106,170.90613,179.90118,179.90118,179.90118,179.90118,179.90118,79
80,162.5712,171.60294,180.63466,180.63466,180.63466,180.63466,180.63466,80
81,163.23662,172.30531,181.37402,181.37402,181.37402,181.37402,181.37402,81
82,163.90736,173.01332,182.1193,182.1193,182.1193,182.1193,182.1193,82
83,164.58347,173.727,182.87053,182.87053,182.87053,182.87053,182.87053,83
84,168.90254,178.28601,187.6695,187.6695,187.6695,187.6695,187.6695,84
85,169.61856,179.04181,188.46506,188.46506,188.46506,188.46506,188.46506,85
86,170.34055,179.80391,189.26727,189.26727,189.26727,189.26727,189.26727,86
87,171.06856,180.57236,190.07617,190.07617,190.07617,190.07617,190.07617,87
88,171.80264,181.34723,190.89182,190.89182,190.89182,190.89182,190.89182,88
89,172.54285,182.12856,191.71428,191.71428,191.71428,191.71428,191.71428,89
90,177.2839,187.13301,196.98212,196.98212,196.98212,196.98212,196.98212,90
91,178.06725,187.95987,197.8525,197.8525,197.8525,197.8525,197.8525,91
92,178.85739,188.79391,198.73044,198.73044,198.73044,198.73044,198.73044,92
93,179.65439,189.6352,199.616,199.616,199.616,199.616,199.616,93
94,180.45831,190.48378,200.50923,200.50923,200.50923,200.50923,200.50923,94
95,185.59084,195.90144,206.21204,206.21204,206.21204,206.21204,206.21204,95
96,186.44055,196.79837,207.15617,207.15617,207.15617,207.15617,207.15617,96
97,187.29794,197.70338,208.10883,208.10883,208.10883,208.10883,208.10883,97
98,188.16306,198.61655,209.07005,209.07005,209.07005,209.07005,209.07005,98
99,189.03596,199.53796,210.03996,210.03996,210.03996,210.03996,210.03996,99
100,189.91675,200.46768,211.01862,211.01862,211.01862,211.01862,211.01862,100
101,195.5512,206.41515,217.2791,217.2791,217.2791,217.2791,217.2791,101
102,196.48174,207.39738,218.31303,218.31303,218.31303,218.31303,218.31303,102
103,197.42097,208.38881,219.35664,219.35664,219.35664,219.35664,219.35664,103
104,198.36902,209.38951,220.41002,220.41002,220.41002,220.41002,220.41002,104
105,199.32591,210.39958,221.47324,221.47324,221.47324,221.47324,221.47324,105
106,205.43279,216.84572,228.25865,228.25865,228.25865,228.25865,228.25865,106
107,206.44272,217.91176,229.3808,229.3808,229.3808,229.3808,229.3808,107
108,207.46243,218.98813,230.51382,230.51382,230.51382,230.51382,230.51382,108
109,208.49203,220.07494,231.65782,231.65782,231.65782,231.65782,231.65782,109
110,209.53162,221.17226,232.81291,232.81291,232.81291,232.81291,232.81291,110
111,210.58127,222.28023,233.97919,233.97919,233.97919,233.97919,233.97919,111
112,217.28928,229.3609,241.43253,241.43253,241.43253,241.43253,241.43253,112
113,218.39682,230.52997,242.66313,242.66313,242.66313,242.66313,242.66313,113
114,219.51546,231.71075,243.90607,243.90607,243.90607,243.90607,243.90607,114
115,220.64532,232.9034,245.16147,245.16147,245.16147,245.16147,245.16147,115
116,221.7865,234.10797,246.42944,246.42944,246.42944,246.42944,246.42944,116
117,229.06787,241.79387,254.51987,254.51987,254.51987,254.51987,254.51987,117
118,230.271,243.06383,255.85666,255.85666,255.85666,255.85666,255.85666,118
119,231.48657,244.34694,257.2073,257.2073,257.2073,257.2073,257.2073,119
120,232.71475,245.64334,258.57193,258.57193,258.57193,258.57193,258.57193,120
121,233.95564,246.95319,259.9507,259.9507,259.9507,259.9507,259.9507,121
122,235.20941,248.2766,261.34378,261.34378,261.34378,261.34378,261.34378,122
123,243.21544,256.72742,270.23938,270.23938,270.23938,270.23938,270.23938,123
124,244.5371,258.1225,271.7079,271.7079,271.7079,271.7079,271.7079,124
125,245.8729,259.5325,273.1921,273.1921,273.1921,273.1921,273.1921,125
126,247.22299,260.9576,274.6922,274.6922,274.6922,274.6922,274.6922,126
127,248.58751,262.39792,276.20834,276.20834,276.20834,276.20834,276.20834,127
128,257.29315,271.58722,285.88126,285.88126,285.88126,285.88126,285.88126,128
129,258.7306,273.1045,287.47842,287.47842,287.47842,287.47842,287.47842,129
130,260.18387,274.63852,289.0932,289.0932,289.0932,289.0932,289.0932,130
131,261.6532,276.18948,290.72577,290.72577,290.72577,290.72577,290.72577,131
132,263.1387,277.75754,292.37634,292.37634,292.37634,292.37634,292.37634,132
133,264.64062,279.3429,294.04514,294.04514,294.04514,294.04514,294.04514,133
134,274.22525,289.45996,304.6947,304.6947,304.6947,304.6947,304.6947,134
135,275.80743,291.13007,306.45273,306.45273,306.45273,306.45273,306.45273,135
136,277.40762,292.81915,308.2307,308.2307,308.2307,308.2307,308.2307,136
137,279.026,294.52744,310.0289,310.0289,310.0289,310.0289,310.0289,137
138,280.66278,296.25516,311.84753,311.84753,311.84753,311.84753,311.84753,138
139,291.10544,307.27795,323.45047,323.45047,323.45047,323.45047,323.45047,139
140,292.8287,309.09695,325.36523,325.36523,325.36523,325.36523,325.36523,140
141,294.57214,310.93726,327.30237,327.30237,327.30237,327.30237,327.30237,141
142,296.33597,312.79907,329.26218,329.26218,329.26218,329.26218,329.26218,142
143,298.12042,314.68265,331.2449,331.2449,331.2449,331.2449,331.2449,143
144,299.92575,316.5883,333.25082,333.25082,333.25082,333.25082,333.25082,144
145,311.44092,328.7432,346.04547,346.04547,346.04547,346.04547,346.04547,145
146,313.34192,330.74982,348.1577,348.1577,348.1577,348.1577,348.1577,146
147,315.2658,332.78058,350.29535,350.29535,350.29535,350.29535,350.29535,147
148,317.21283,334.83575,352.4587,352.4587,352.4587,352.4587,352.4587,148
149,319.1833,336.91568,354.6481,354.6481,354.6481,354.6481,354.6481,149
150,331.75616,350.18707,368.61795,368.61795,368.61795,368.61795,368.61795,150
151,333.83005,352.37616,370.92227,370.92227,370.92227,370.92227,370.92227,151
152,335.92957,354.59232,373.2551,373.2551,373.2551,373.2551,373.2551,152
153,338.05505,356.83588,375.61673,375.61673,375.61673,375.61673,375.61673,153
154,340.20682,359.10718,378.00757,378.00757,378.00757,378.00757,378.00757,154
155,342.38516,361.40656,380.42795,380.42795,380.42795,380.42795,380.42795,155
156,356.27432,376.06732,395.86035,395.86035,395.86035,395.86035,395.86035,156
157,358.56754,378.48795,398.40836,398.40836,398.40836,398.40836,398.40836,157
158,360.88986,380.9393,400.98874,400.98874,400.98874,400.98874,400.98874,158
159,363.24167,383.42175,403.60187,403.60187,403.60187,403.60187,403.60187,159
160,365.62335,385.93576,406.24817,406.24817,406.24817,406.24817,406.24817,160
161,380.82285,401.97964,423.13647,423.13647,423.13647,423.13647,423.13647,161
162,383.3291,404.62515,425.9212,425.9212,425.9212,425.9212,425.9212,162
163,385.868,407.3051,428.74222,428.74222,428.74222,428.74222,428.74222,163
164,388.44,410.02,431.59998,431.59998,431.59998,431.59998,431.59998,164
165,391.04547,412.77023,434.49496,434.49496,434.49496,434.49496,434.49496,165
166,393.6849,415.55627,437.42767,437.42767,437.42767,437.42767,437.42767,166
167,410.5089,433.31497,456.121,456.121,456.121,456.121,456.121,167
168,413.28723,436.24765,459.20804,459.20804,459.20804,459.20804,459.20804,168
169,416.1027,439.21948,462.3363,462.3363,462.3363,462.3363,462.3363,169
170,418.95572,442.23105,465.50635,465.50635,465.50635,465.50635,465.50635,170
171,421.84686,445.2828,468.71875,468.71875,468.71875,468.71875,468.71875,171
172,440.30228,464.76352,489.22476,489.22476,489.22476,489.22476,489.22476,172
173,443.3446,467.97485,492.6051,492.6051,492.6051,492.6051,492.6051,173
174,446.42856,471.23016,496.03174,496.03174,496.03174,496.03174,496.03174,174
175,449.55475,474.53,499.50528,499.50528,499.50528,499.50528,499.50528,175
176,452.72372,477.87503,503.02634,503.02634,503.02634,503.02634,503.02634,176
177,455.93607,481.26584,506.5956,506.5956,506.5956,506.5956,506.5956,177
178,476.4076,502.8747,529.3418,529.3418,529.3418,529.3418,529.3418,178
179,479.78912,506.4441,533.09906,533.09906,533.09906,533.09906,533.09906,179
180,483.21805,510.0635,536.90894,536.90894,536.90894,536.90894,536.90894,180
181,486.69504,513.73364,540.7723,540.7723,540.7723,540.7723,540.7723,181
182,490.22076,517.45526,544.68976,544.68976,544.68976,544.68976,544.68976,182
183,514.6032,543.1923,571.7814,571.7814,571.7814,571.7814,571.7814,183
184,518.3405,547.1372,575.9339,575.9339,575.9339,575.9339,575.9339,184
185,522.13135,551.1387,580.14594,580.14594,580.14594,580.14594,580.14594,185
186,525.9766,555.1976,584.41846,584.41846,584.41846,584.41846,584.41846,186
187,529.8771,559.3147,588.75226,588.75226,588.75226,588.75226,588.75226,187
188,554.7865,585.608,616.42944,616.42944,616.42944,616.42944,616.42944,188
189,558.8916,589.94116,620.9907,620.9907,620.9907,620.9907,620.9907,189
190,563.057,594.33795,625.6189,625.6189,625.6189,625.6189,625.6189,190
191,567.2835,598.79926,630.31506,630.31506,630.31506,630.31506,630.31506,191
192,571.5721,603.32605,635.0801,635.0801,635.0801,635.0801,635.0801,192
193,575.9235,607.9193,639.91504,639.91504,639.91504,639.91504,639.91504,193
194,603.64935,637.1854,670.7215,670.7215,670.7215,670.7215,670.7215,194
195,608.23126,642.02185,675.8125,675.8125,675.8125,675.8125,675.8125,195
196,612.88184,646.93085,680.97986,680.97986,680.97986,680.97986,680.97986,196
197,617.60223,651.91345,686.22473,686.22473,686.22473,686.22473,686.22473,197
198,622.39343,656.9709,691.5483,691.5483,691.5483,691.5483,691.5483,198
199,653.0027,689.28064,725.5586,725.5586,725.5586,725.5586,725.5586,199
200,658.04663,694.6048,731.16296,731.16296,731.16296,731.16296,731.16296,200
201,663.1679,700.0106,736.8533,736.8533,736.8533,736.8533,736.8533,201
202,668.36774,705.49927,742.6308,742.6308,742.6308,742.6308,742.6308,202
203,673.6472,711.0721,748.49695,748.49695,748.49695,748.49695,748.49695,203
204,679.0077,716.73035,754.453,754.453,754.453,754.453,754.453,204
205,713.1605,752.7805,792.4006,792.4006,792.4006,792.4006,792.4006,205
206,718.80646,758.7401,798.6738,798.6738,798.6738,798.6738,798.6738,206
207,724.5408,764.793,805.0453,805.0453,805.0453,805.0453,805.0453,207
208,730.3649,770.94073,811.51654,811.51654,811.51654,811.51654,811.51654,208
209,736.2802,777.1847,818.0892,818.0892,818.0892,818.0892,818.0892,209
210,774.08606,817.0908,860.09564,860.09564,860.09564,860.09564,860.09564,210
211,780.3155,823.6664,867.0172,867.0172,867.0172,867.0172,867.0172,211
212,786.64453,830.34705,874.0495,874.0495,874.0495,874.0495,874.0495,212
213,793.07477,837.13446,881.19415,881.19415,881.19415,881.19415,881.19415,213
214,799.6078,844.03046,888.45306,888.45306,888.45306,888.45306,888.45306,214
215,806.24524,851.0366,895.828,895.828,895.828,895.828,895.828,215
216,848.53375,895.67456,942.8153,942.8153,942.8153,942.8153,942.8153,216
217,855.52734,903.05664,950.58594,950.58594,950.58594,950.58594,950.58594,217
218,862.63495,910.5591,958.4833,958.4833,958.4833,958.4833,958.4833,218
219,869.8585,918.18396,966.50946,966.50946,966.50946,966.50946,966.50946,219
220,877.1999,925.9332,974.66656,974.66656,974.66656,974.66656,974.66656,220
221,924.1399,975.481,1026.8221,1026.8221,1026.8221,1026.8221,1026.8221,221
222,931.8743,983.64514,1035.4159,1035.4159,1035.4159,1035.4159,1035.4159,222
223,939.7374,991.94507,1044.1527,1044.1527,1044.1527,1044.1527,1044.1527,223
224,947.7313,1000.3831,1053.0348,1053.0348,1053.0348,1053.0348,1053.0348,224
225,955.8583,1008.9615,1062.0648,1062.0648,1062.0648,1062.0648,1062.0648,225
226,964.1204,1017.6827,1071.245,1071.245,1071.245,1071.245,1071.245,226
227,1016.7623,1073.2491,1129.736,1129.736,1129.736,1129.736,1129.736,227
228,1025.4716,1082.4423,1139.4128,1139.4128,1139.4128,1139.4128,1139.4128,228
229,1034.3286,1091.7913,1149.254,1149.254,1149.254,1149.254,1149.254,229
230,1043.3358,1101.299,1159.2621,1159.2621,1159.2621,1159.2621,1159.2621,230
231,1052.4958,1110.9679,1169.44,1169.44,1169.44,1169.44,1169.44,231
232,1111.091,1172.8181,1234.5454,1234.5454,1234.5454,1234.5454,1234.5454,232
233,1120.746,1183.0095,1245.2732,1245.2732,1245.2732,1245.2732,1245.2732,233
234,1130.5679,1193.3772,1256.1865,1256.1865,1256.1865,1256.1865,1256.1865,234
235,1140.5596,1203.9241,1267.2885,1267.2885,1267.2885,1267.2885,1267.2885,235
236,1150.7241,1214.6532,1278.5824,1278.5824,1278.5824,1278.5824,1278.5824,236
237,1161.0643,1225.568,1290.0715,1290.0715,1290.0715,1290.0715,1290.0715,237
238,1226.9515,1295.1155,1363.2794,1363.2794,1363.2794,1363.2794,1363.2794,238
239,1237.8568,1306.6266,1375.3965,1375.3965,1375.3965,1375.3965,1375.3965,239
240,1248.9542,1318.3405,1387.7268,1387.7268,1387.7268,1387.7268,1387.7268,240
241,1260.247,1330.2607,1400.2744,1400.2744,1400.2744,1400.2744,1400.2744,241
242,1271.7388,1342.3909,1413.0431,1413.0431,1413.0431,1413.0431,1413.0431,242
243,1345.2843,1420.0223,1494.7604,1494.7604,1494.7604,1494.7604,1494.7604,243
244,1357.4034,1432.8147,1508.2261,1508.2261,1508.2261,1508.2261,1508.2261,244
245,1369.74,1445.8367,1521.9332,1521.9332,1521.9332,1521.9332,1521.9332,245
246,1382.2977,1459.092,1535.8865,1535.8865,1535.8865,1535.8865,1535.8865,246
247,1395.0808,1472.5853,1550.0898,1550.0898,1550.0898,1550.0898,1550.0898,247
248,1408.0933,1486.3207,1564.5481,1564.5481,1564.5481,1564.5481,1564.5481,248
249,1491.0159,1573.8501,1656.6843,1656.6843,1656.6843,1656.6843,1656.6843,249
250,1504.747,1588.3441,1671.9412,1671.9412,1671.9412,1671.9412,1671.9412,250
251,1518.7289,1603.1027,1687.4764,1687.4764,1687.4764,1687.4764,1687.4764,251
252,1532.966,1618.1307,1703.2955,1703.2955,1703.2955,1703.2955,1703.2955,252
253,1547.4631,1633.4333,1719.4034,1719.4034,1719.4034,1719.4034,1719.4034,253
254,1640.2894,1731.4166,1822.5437,1822.5437,1822.5437,1822.5437,1822.5437,254
255,1655.5869,1747.564,1839.541,1839.541,1839.541,1839.541,1839.541,255
256,1671.1687,1764.0115,1856.8541,1856.8541,1856.8541,1856.8541,1856.8541,256
257,1687.0402,1780.7646,1874.4891,1874.4891,1874.4891,1874.4891,1874.4891,257
258,1703.2065,1797.8291,1892.4518,1892.4518,1892.4518,1892.4518,1892.4518,258
259,1719.6733,1815.2108,1910.7482,1910.7482,1910.7482,1910.7482,1910.7482,259
260,1824.6241,1925.9922,2027.3602,2027.3602,2027.3602,2027.3602,2027.3602,260
261,1842.011,1944.345,2046.679,2046.679,2046.679,2046.679,2046.679,261
262,1859.7266,1963.0447,2066.3628,2066.3628,2066.3628,2066.3628,2066.3628,262
263,1877.7771,1982.098,2086.419,2086.419,2086.419,2086.419,2086.419,263
264,1896.169,2001.5116,2106.8542,2106.8542,2106.8542,2106.8542,2106.8542,264
265,2013.994,2125.8826,2237.7712,2237.7712,2237.7712,2237.7712,2237.7712,265
