ID,EpicF[0],EpicF[1],SuperiorF[0],SuperiorF[1],GoodF[0],GoodF[1],Epic[0],Epic[1],Superior[0],Superior[1],Good[0],Good[1]
1,109.39719,87.51775,109.39719,87.51775,109.39719,87.51775,109,87,109,87,109,87
2,110.76466,88.611725,110.76466,88.611725,110.76466,88.611725,110,88,110,88,110,88
3,112.14922,89.719376,112.14922,89.719376,112.14922,89.719376,112,89,112,89,112,89
4,113.55109,90.840866,113.55109,90.840866,113.55109,90.840866,113,90,113,90,113,90
5,114.97047,91.97638,114.97047,91.97638,114.97047,91.97638,114,91,114,91,114,91
6,116.4076,93.12608,116.4076,93.12608,116.4076,93.12608,116,93,116,93,116,93
7,117.8627,94.29016,117.8627,94.29016,117.8627,94.29016,117,94,117,94,117,94
8,119.33598,95.46879,119.33598,95.46879,119.33598,95.46879,119,95,119,95,119,95
9,120.82768,96.66215,120.82768,96.66215,120.82768,96.66215,120,96,120,96,120,96
10,122.33803,97.87042,122.33803,97.87042,122.33803,97.87042,122,97,122,97,122,97
11,123.86726,99.0938,123.86726,99.0938,123.86726,99.0938,123,99,123,99,123,99
12,125.4156,100.33247,125.4156,100.33247,125.4156,100.33247,125,100,125,100,125,100
13,126.98329,101.58663,126.98329,101.58663,126.98329,101.58663,126,101,126,101,126,101
14,128.57059,102.85646,128.57059,102.85646,128.57059,102.85646,128,102,128,102,128,102
15,130.17772,104.14217,130.17772,104.14217,130.17772,104.14217,130,104,130,104,130,104
16,131.80493,105.44395,131.80493,105.44395,131.80493,105.44395,131,105,131,105,131,105
17,133.4525,106.76199,133.4525,106.76199,133.4525,106.76199,133,106,133,106,133,106
18,135.12065,108.09652,135.12065,108.09652,135.12065,108.09652,135,108,135,108,135,108
19,136.80966,109.44773,136.80966,109.44773,136.80966,109.44773,136,109,136,109,136,109
20,138.51978,110.81583,138.51978,110.81583,138.51978,110.81583,138,110,138,110,138,110
21,140.25128,112.20102,140.25128,112.20102,140.25128,112.20102,140,112,140,112,140,112
22,142.00443,113.60354,142.00443,113.60354,142.00443,113.60354,142,113,142,113,142,113
23,143.77948,115.02358,143.77948,115.02358,143.77948,115.02358,143,115,143,115,143,115
24,145.57672,116.46137,145.57672,116.46137,145.57672,116.46137,145,116,145,116,145,116
25,147.39642,117.91714,147.39642,117.91714,147.39642,117.91714,147,117,147,117,147,117
26,149.23888,119.39111,149.23888,119.39111,149.23888,119.39111,149,119,149,119,149,119
27,151.10437,120.88349,151.10437,120.88349,151.10437,120.88349,151,120,151,120,151,120
28,152.99318,122.39454,152.99318,122.39454,152.99318,122.39454,152,122,152,122,152,122
29,154.9056,123.92447,154.9056,123.92447,154.9056,123.92447,154,123,154,123,154,123
30,156.8419,125.47353,156.8419,125.47353,156.8419,125.47353,156,125,156,125,156,125
31,158.80243,127.04195,158.80243,127.04195,158.80243,127.04195,158,127,158,127,158,127
32,160.78746,128.62997,160.78746,128.62997,160.78746,128.62997,160,128,160,128,160,128
33,162.7973,130.23784,162.7973,130.23784,162.7973,130.23784,162,130,162,130,162,130
34,164.83228,131.86581,164.83228,131.86581,164.83228,131.86581,164,131,164,131,164,131
35,166.89267,133.51414,166.89267,133.51414,166.89267,133.51414,166,133,166,133,166,133
36,168.97884,135.18306,168.97884,135.18306,168.97884,135.18306,168,135,168,135,168,135
37,171.09106,136.87285,171.09106,136.87285,171.09106,136.87285,171,136,171,136,171,136
38,173.2297,138.58377,173.2297,138.58377,173.2297,138.58377,173,138,173,138,173,138
39,175.39508,140.31606,175.39508,140.31606,175.39508,140.31606,175,140,175,140,175,140
40,177.58751,142.07,177.58751,142.07,177.58751,142.07,177,142,177,142,177,142
41,179.80736,143.84589,179.80736,143.84589,179.80736,143.84589,179,143,179,143,179,143
42,182.05495,145.64397,182.05495,145.64397,182.05495,145.64397,182,145,182,145,182,145
43,184.33064,147.46451,184.33064,147.46451,184.33064,147.46451,184,147,184,147,184,147
44,186.63477,149.30782,186.63477,149.30782,186.63477,149.30782,186,149,186,149,186,149
45,188.96771,151.17416,188.96771,151.17416,188.96771,151.17416,188,151,188,151,188,151
46,191.3298,153.06384,191.3298,153.06384,191.3298,153.06384,191,153,191,153,191,153
47,193.72142,154.97714,193.72142,154.97714,193.72142,154.97714,193,154,193,154,193,154
48,196.14294,156.91435,196.14294,156.91435,196.14294,156.91435,196,156,196,156,196,156
49,198.59473,158.87578,198.59473,158.87578,198.59473,158.87578,198,158,198,158,198,158
50,201.07716,160.86172,201.07716,160.86172,201.07716,160.86172,201,160,201,160,201,160
51,203.59062,162.8725,203.59062,162.8725,203.59062,162.8725,203,162,203,162,203,162
52,206.13551,164.90842,206.13551,164.90842,206.13551,164.90842,206,164,206,164,206,164
53,208.7122,166.96976,208.7122,166.96976,208.7122,166.96976,208,166,208,166,208,166
54,211.3211,169.05688,211.3211,169.05688,211.3211,169.05688,211,169,211,169,211,169
55,213.96262,171.1701,213.96262,171.1701,213.96262,171.1701,213,171,213,171,213,171
56,216.63716,173.30972,216.63716,173.30972,216.63716,173.30972,216,173,216,173,216,173
57,219.34512,175.47609,219.34512,175.47609,219.34512,175.47609,219,175,219,175,219,175
58,222.08693,177.66954,222.08693,177.66954,222.08693,177.66954,222,177,222,177,222,177
59,224.86302,179.89041,224.86302,179.89041,224.86302,179.89041,224,179,224,179,224,179
60,227.67381,182.13905,227.67381,182.13905,227.67381,182.13905,227,182,227,182,227,182
61,230.51973,184.41579,230.51973,184.41579,230.51973,184.41579,230,184,230,184,230,184
62,233.40123,186.72098,233.40123,186.72098,233.40123,186.72098,233,186,233,186,233,186
63,236.31874,189.055,236.31874,189.055,236.31874,189.055,236,189,236,189,236,189
64,239.27272,191.41818,239.27272,191.41818,239.27272,191.41818,239,191,239,191,239,191
65,242.26364,193.81091,242.26364,193.81091,242.26364,193.81091,242,193,242,193,242,193
66,245.29193,196.23355,245.29193,196.23355,245.29193,196.23355,245,196,245,196,245,196
67,248.35808,198.68646,248.35808,198.68646,248.35808,198.68646,248,198,248,198,248,198
68,251.46255,201.17004,251.46255,201.17004,251.46255,201.17004,251,201,251,201,251,201
69,254.60583,203.68468,254.60583,203.68468,254.60583,203.68468,254,203,254,203,254,203
70,257.78842,206.23073,257.78842,206.23073,257.78842,206.23073,257,206,257,206,257,206
71,261.01077,208.80861,261.01077,208.80861,261.01077,208.80861,261,208,261,208,261,208
72,264.2734,211.41872,264.2734,211.41872,264.2734,211.41872,264,211,264,211,264,211
73,267.5768,214.06145,267.5768,214.06145,267.5768,214.06145,267,214,267,214,267,214
74,270.92154,216.73723,270.92154,216.73723,270.92154,216.73723,270,216,270,216,270,216
75,274.30804,219.44644,274.30804,219.44644,274.30804,219.44644,274,219,274,219,274,219
76,277.7369,222.18951,277.7369,222.18951,277.7369,222.18951,277,222,277,222,277,222
77,281.20862,224.96689,281.20862,224.96689,281.20862,224.96689,281,224,281,224,281,224
78,284.72372,227.77898,284.72372,227.77898,284.72372,227.77898,284,227,284,227,284,227
79,288.28278,230.6262,288.28278,230.6262,288.28278,230.6262,288,230,288,230,288,230
80,291.8863,233.50903,291.8863,233.50903,291.8863,233.50903,291,233,291,233,291,233
81,295.53488,236.4279,295.53488,236.4279,295.53488,236.4279,295,236,295,236,295,236
82,299.22906,239.38326,299.22906,239.38326,299.22906,239.38326,299,239,299,239,299,239
83,302.96942,242.37553,302.96942,242.37553,302.96942,242.37553,302,242,302,242,302,242
84,306.75653,245.40523,306.75653,245.40523,306.75653,245.40523,306,245,306,245,306,245
85,310.591,248.4728,310.591,248.4728,310.591,248.4728,310,248,310,248,310,248
86,314.4734,251.5787,314.4734,251.5787,314.4734,251.5787,314,251,314,251,314,251
87,318.4043,254.72345,318.4043,254.72345,318.4043,254.72345,318,254,318,254,318,254
88,322.38437,257.9075,322.38437,257.9075,322.38437,257.9075,322,257,322,257,322,257
89,326.41415,261.13132,326.41415,261.13132,326.41415,261.13132,326,261,326,261,326,261
90,330.49435,264.39548,330.49435,264.39548,330.49435,264.39548,330,264,330,264,330,264
91,334.62552,267.7004,334.62552,267.7004,334.62552,267.7004,334,267,334,267,334,267
92,338.80835,271.04666,338.80835,271.04666,338.80835,271.04666,338,271,338,271,338,271
93,343.04346,274.43475,343.04346,274.43475,343.04346,274.43475,343,274,343,274,343,274
94,347.33148,277.8652,347.33148,277.8652,347.33148,277.8652,347,277,347,277,347,277
95,351.67313,281.3385,351.67313,281.3385,351.67313,281.3385,351,281,351,281,351,281
96,356.06903,284.85522,356.06903,284.85522,356.06903,284.85522,356,284,356,284,356,284
97,360.5199,288.41592,360.5199,288.41592,360.5199,288.41592,360,288,360,288,360,288
98,365.0264,292.02112,365.0264,292.02112,365.0264,292.02112,365,292,365,292,365,292
99,369.58923,295.6714,369.58923,295.6714,369.58923,295.6714,369,295,369,295,369,295
100,374.2091,299.36728,374.2091,299.36728,374.2091,299.36728,374,299,374,299,374,299
101,378.88672,303.10938,378.88672,303.10938,378.88672,303.10938,378,303,378,303,378,303
102,383.6228,306.89825,383.6228,306.89825,383.6228,306.89825,383,306,383,306,383,306
103,388.4181,310.73447,388.4181,310.73447,388.4181,310.73447,388,310,388,310,388,310
104,393.27332,314.61865,393.27332,314.61865,393.27332,314.61865,393,314,393,314,393,314
105,398.18924,318.5514,398.18924,318.5514,398.18924,318.5514,398,318,398,318,398,318
106,403.1666,322.53326,403.1666,322.53326,403.1666,322.53326,403,322,403,322,403,322
107,408.20618,326.56494,408.20618,326.56494,408.20618,326.56494,408,326,408,326,408,326
108,413.30875,330.647,413.30875,330.647,413.30875,330.647,413,330,413,330,413,330
109,418.4751,334.7801,418.4751,334.7801,418.4751,334.7801,418,334,418,334,418,334
110,423.70605,338.96484,423.70605,338.96484,423.70605,338.96484,423,338,423,338,423,338
111,429.00238,343.2019,429.00238,343.2019,429.00238,343.2019,429,343,429,343,429,343
112,434.3649,347.4919,434.3649,347.4919,434.3649,347.4919,434,347,434,347,434,347
113,439.79446,351.83557,439.79446,351.83557,439.79446,351.83557,439,351,439,351,439,351
114,445.2919,356.23352,445.2919,356.23352,445.2919,356.23352,445,356,445,356,445,356
115,450.85803,360.68643,450.85803,360.68643,450.85803,360.68643,450,360,450,360,450,360
116,456.49377,365.195,456.49377,365.195,456.49377,365.195,456,365,456,365,456,365
117,462.19995,369.75995,462.19995,369.75995,462.19995,369.75995,462,369,462,369,462,369
118,467.97745,374.38196,467.97745,374.38196,467.97745,374.38196,467,374,467,374,467,374
119,473.82715,379.06174,473.82715,379.06174,473.82715,379.06174,473,379,473,379,473,379
120,479.75,383.8,479.75,383.8,479.75,383.8,479,383,479,383,479,383
121,485.7469,388.5975,485.7469,388.5975,485.7469,388.5975,485,388,485,388,485,388
122,491.81873,393.45496,491.81873,393.45496,491.81873,393.45496,491,393,491,393,491,393
123,497.96643,398.37317,497.96643,398.37317,497.96643,398.37317,497,398,497,398,497,398
124,504.19104,403.3528,504.19104,403.3528,504.19104,403.3528,504,403,504,403,504,403
125,510.4934,408.39474,510.4934,408.39474,510.4934,408.39474,510,408,510,408,510,408
126,516.8746,413.49966,516.8746,413.49966,516.8746,413.49966,516,413,516,413,516,413
127,523.3355,418.6684,523.3355,418.6684,523.3355,418.6684,523,418,523,418,523,418
128,529.8772,423.90176,529.8772,423.90176,529.8772,423.90176,529,423,529,423,529,423
129,536.5007,429.20053,536.5007,429.20053,536.5007,429.20053,536,429,536,429,536,429
130,543.2069,434.56555,543.2069,434.56555,543.2069,434.56555,543,434,543,434,543,434
131,549.997,439.99762,549.997,439.99762,549.997,439.99762,549,439,549,439,549,439
132,556.872,445.4976,556.872,445.4976,556.872,445.4976,556,445,556,445,556,445
133,563.8329,451.0663,563.8329,451.0663,563.8329,451.0663,563,451,563,451,563,451
134,570.8808,456.70462,570.8808,456.70462,570.8808,456.70462,570,456,570,456,570,456
135,578.0168,462.41345,578.0168,462.41345,578.0168,462.41345,578,462,578,462,578,462
136,585.242,468.1936,585.242,468.1936,585.242,468.1936,585,468,585,468,585,468
137,592.55756,474.04602,592.55756,474.04602,592.55756,474.04602,592,474,592,474,592,474
138,599.9645,479.97162,599.9645,479.97162,599.9645,479.97162,599,479,599,479,599,479
139,607.46405,485.97125,607.46405,485.97125,607.46405,485.97125,607,485,607,485,607,485
140,615.0574,492.0459,615.0574,492.0459,615.0574,492.0459,615,492,615,492,615,492
141,622.7456,498.19647,622.7456,498.19647,622.7456,498.19647,622,498,622,498,622,498
142,630.5299,504.42392,630.5299,504.42392,630.5299,504.42392,630,504,630,504,630,504
143,638.4115,510.72922,638.4115,510.72922,638.4115,510.72922,638,510,638,510,638,510
144,646.39166,517.11334,646.39166,517.11334,646.39166,517.11334,646,517,646,517,646,517
145,654.47156,523.5773,654.47156,523.5773,654.47156,523.5773,654,523,654,523,654,523
146,662.65247,530.12195,662.65247,530.12195,662.65247,530.12195,662,530,662,530,662,530
147,670.9356,536.7485,670.9356,536.7485,670.9356,536.7485,670,536,670,536,670,536
148,679.3223,543.4578,679.3223,543.4578,679.3223,543.4578,679,543,679,543,679,543
149,687.81384,550.2511,687.81384,550.2511,687.81384,550.2511,687,550,687,550,687,550
150,696.4115,557.1292,696.4115,557.1292,696.4115,557.1292,696,557,696,557,696,557
151,705.11664,564.0933,705.11664,564.0933,705.11664,564.0933,705,564,705,564,705,564
152,713.9306,571.1445,713.9306,571.1445,713.9306,571.1445,713,571,713,571,713,571
153,722.85474,578.2838,722.85474,578.2838,722.85474,578.2838,722,578,722,578,722,578
154,731.89044,585.5123,731.89044,585.5123,731.89044,585.5123,731,585,731,585,731,585
155,741.03906,592.83124,741.03906,592.83124,741.03906,592.83124,741,592,741,592,741,592
156,750.30206,600.24164,750.30206,600.24164,750.30206,600.24164,750,600,750,600,750,600
157,759.68085,607.7446,759.68085,607.7446,759.68085,607.7446,759,607,759,607,759,607
158,769.1768,615.3415,769.1768,615.3415,769.1768,615.3415,769,615,769,615,769,615
159,778.79156,623.03326,778.79156,623.03326,778.79156,623.03326,778,623,778,623,778,623
160,788.5264,630.82117,788.5264,630.82117,788.5264,630.82117,788,630,788,630,788,630
161,798.383,638.7064,798.383,638.7064,798.383,638.7064,798,638,798,638,798,638
162,808.3628,646.69025,808.3628,646.69025,808.3628,646.69025,808,646,808,646,808,646
163,818.46735,654.77386,818.46735,654.77386,818.46735,654.77386,818,654,818,654,818,654
164,828.6982,662.95856,828.6982,662.95856,828.6982,662.95856,828,662,828,662,828,662
165,839.0569,671.24554,839.0569,671.24554,839.0569,671.24554,839,671,839,671,839,671
166,849.5451,679.6361,849.5451,679.6361,849.5451,679.6361,849,679,849,679,849,679
167,860.1644,688.13153,860.1644,688.13153,860.1644,688.13153,860,688,860,688,860,688
168,870.9165,696.7332,870.9165,696.7332,870.9165,696.7332,870,696,870,696,870,696
169,881.803,705.4424,881.803,705.4424,881.803,705.4424,881,705,881,705,881,705
170,892.8255,714.2604,892.8255,714.2604,892.8255,714.2604,892,714,892,714,892,714
171,903.9858,723.18866,903.9858,723.18866,903.9858,723.18866,903,723,903,723,903,723
172,915.28564,732.2285,915.28564,732.2285,915.28564,732.2285,915,732,915,732,915,732
173,926.7267,741.38135,926.7267,741.38135,926.7267,741.38135,926,741,926,741,926,741
174,938.3108,750.6486,938.3108,750.6486,938.3108,750.6486,938,750,938,750,938,750
175,950.0397,760.03174,950.0397,760.03174,950.0397,760.03174,950,760,950,760,950,760
176,961.91516,769.5321,961.91516,769.5321,961.91516,769.5321,961,769,961,769,961,769
177,973.9391,779.1513,973.9391,779.1513,973.9391,779.1513,973,779,973,779,973,779
178,986.11334,788.8907,986.11334,788.8907,986.11334,788.8907,986,788,986,788,986,788
179,998.43976,798.75183,998.43976,798.75183,998.43976,798.75183,998,798,998,798,998,798
180,1010.9202,808.7362,1010.9202,808.7362,1010.9202,808.7362,1010,808,1010,808,1010,808
181,1023.5568,818.8454,1023.5568,818.8454,1023.5568,818.8454,1023,818,1023,818,1023,818
182,1036.3512,829.081,1036.3512,829.081,1036.3512,829.081,1036,829,1036,829,1036,829
183,1049.3057,839.44446,1049.3057,839.44446,1049.3057,839.44446,1049,839,1049,839,1049,839
184,1062.4219,849.93756,1062.4219,849.93756,1062.4219,849.93756,1062,849,1062,849,1062,849
185,1075.7021,860.56177,1075.7021,860.56177,1075.7021,860.56177,1075,860,1075,860,1075,860
186,1089.1484,871.3188,1089.1484,871.3188,1089.1484,871.3188,1089,871,1089,871,1089,871
187,1102.7628,882.21027,1102.7628,882.21027,1102.7628,882.21027,1102,882,1102,882,1102,882
188,1116.5474,893.2379,1116.5474,893.2379,1116.5474,893.2379,1116,893,1116,893,1116,893
189,1130.5042,904.4034,1130.5042,904.4034,1130.5042,904.4034,1130,904,1130,904,1130,904
190,1144.6355,915.70844,1144.6355,915.70844,1144.6355,915.70844,1144,915,1144,915,1144,915
191,1158.9435,927.1548,1158.9435,927.1548,1158.9435,927.1548,1158,927,1158,927,1158,927
192,1173.4303,938.7442,1173.4303,938.7442,1173.4303,938.7442,1173,938,1173,938,1173,938
193,1188.0981,950.4785,1188.0981,950.4785,1188.0981,950.4785,1188,950,1188,950,1188,950
194,1202.9493,962.3595,1202.9493,962.3595,1202.9493,962.3595,1202,962,1202,962,1202,962
195,1217.9862,974.389,1217.9862,974.389,1217.9862,974.389,1217,974,1217,974,1217,974
196,1233.211,986.56885,1233.211,986.56885,1233.211,986.56885,1233,986,1233,986,1233,986
197,1248.6262,998.90094,1248.6262,998.90094,1248.6262,998.90094,1248,998,1248,998,1248,998
198,1264.234,1011.3872,1264.234,1011.3872,1264.234,1011.3872,1264,1011,1264,1011,1264,1011
199,1280.037,1024.0295,1280.037,1024.0295,1280.037,1024.0295,1280,1024,1280,1024,1280,1024
200,1296.0374,1036.83,1296.0374,1036.83,1296.0374,1036.83,1296,1036,1296,1036,1296,1036
201,1312.2379,1049.7903,1312.2379,1049.7903,1312.2379,1049.7903,1312,1049,1312,1049,1312,1049
202,1328.6409,1062.9127,1328.6409,1062.9127,1328.6409,1062.9127,1328,1062,1328,1062,1328,1062
203,1345.2489,1076.1991,1345.2489,1076.1991,1345.2489,1076.1991,1345,1076,1345,1076,1345,1076
204,1362.0645,1089.6516,1362.0645,1089.6516,1362.0645,1089.6516,1362,1089,1362,1089,1362,1089
205,1379.0903,1103.2722,1379.0903,1103.2722,1379.0903,1103.2722,1379,1103,1379,1103,1379,1103
206,1396.3289,1117.0631,1396.3289,1117.0631,1396.3289,1117.0631,1396,1117,1396,1117,1396,1117
207,1413.783,1131.0264,1413.783,1131.0264,1413.783,1131.0264,1413,1131,1413,1131,1413,1131
208,1431.4553,1145.1642,1431.4553,1145.1642,1431.4553,1145.1642,1431,1145,1431,1145,1431,1145
209,1449.3485,1159.4788,1449.3485,1159.4788,1449.3485,1159.4788,1449,1159,1449,1159,1449,1159
210,1467.4653,1173.9723,1467.4653,1173.9723,1467.4653,1173.9723,1467,1173,1467,1173,1467,1173
211,1485.8087,1188.647,1485.8087,1188.647,1485.8087,1188.647,1485,1188,1485,1188,1485,1188
212,1504.3812,1203.505,1504.3812,1203.505,1504.3812,1203.505,1504,1203,1504,1203,1504,1203
213,1523.186,1218.5488,1523.186,1218.5488,1523.186,1218.5488,1523,1218,1523,1218,1523,1218
214,1542.2258,1233.7806,1542.2258,1233.7806,1542.2258,1233.7806,1542,1233,1542,1233,1542,1233
215,1561.5037,1249.203,1561.5037,1249.203,1561.5037,1249.203,1561,1249,1561,1249,1561,1249
216,1581.0225,1264.818,1581.0225,1264.818,1581.0225,1264.818,1581,1264,1581,1264,1581,1264
217,1600.7853,1280.6282,1600.7853,1280.6282,1600.7853,1280.6282,1600,1280,1600,1280,1600,1280
218,1620.795,1296.6361,1620.795,1296.6361,1620.795,1296.6361,1620,1296,1620,1296,1620,1296
219,1641.055,1312.844,1641.055,1312.844,1641.055,1312.844,1641,1312,1641,1312,1641,1312
220,1661.5682,1329.2545,1661.5682,1329.2545,1661.5682,1329.2545,1661,1329,1661,1329,1661,1329
221,1682.3378,1345.8702,1682.3378,1345.8702,1682.3378,1345.8702,1682,1345,1682,1345,1682,1345
222,1703.3671,1362.6936,1703.3671,1362.6936,1703.3671,1362.6936,1703,1362,1703,1362,1703,1362
223,1724.659,1379.7273,1724.659,1379.7273,1724.659,1379.7273,1724,1379,1724,1379,1724,1379
224,1746.2174,1396.9739,1746.2174,1396.9739,1746.2174,1396.9739,1746,1396,1746,1396,1746,1396
225,1768.045,1414.436,1768.045,1414.436,1768.045,1414.436,1768,1414,1768,1414,1768,1414
226,1790.1456,1432.1165,1790.1456,1432.1165,1790.1456,1432.1165,1790,1432,1790,1432,1790,1432
227,1812.5225,1450.018,1812.5225,1450.018,1812.5225,1450.018,1812,1450,1812,1450,1812,1450
228,1835.179,1468.1432,1835.179,1468.1432,1835.179,1468.1432,1835,1468,1835,1468,1835,1468
229,1858.1188,1486.495,1858.1188,1486.495,1858.1188,1486.495,1858,1486,1858,1486,1858,1486
230,1881.3452,1505.0762,1881.3452,1505.0762,1881.3452,1505.0762,1881,1505,1881,1505,1881,1505
